   1.2748967e+02   1.8800197e+02   2.3350272e+02
   1.3007202e+02   2.0313624e+02   2.4754912e+01
   4.2722698e+01   1.9152560e+02   1.2795990e+02
   2.1429110e+02   1.9179342e+02   1.3052819e+02
   1.2990134e+02   4.6738186e+01   1.3079521e+02
   1.2849486e+02   1.6647186e+02   2.3609375e+02
   1.2893995e+02   1.4656420e+02   2.3545286e+02
   1.2916384e+02   1.2444528e+02   2.3320815e+02
   1.2966348e+02   1.0560159e+02   2.2391863e+02
   1.3018974e+02   8.9099016e+01   2.1294854e+02
   1.2997067e+02   7.5556247e+01   1.9856563e+02
   1.3011406e+02   6.3380036e+01   1.8402463e+02
   1.3019397e+02   5.6367536e+01   1.6765532e+02
   1.3034663e+02   4.9934083e+01   1.4889073e+02
   1.3086791e+02   4.5714388e+01   1.0996679e+02
   1.2979385e+02   4.7963851e+01   9.1406375e+01
   1.3017555e+02   5.7220574e+01   7.2113593e+01
   1.3000920e+02   7.3516521e+01   5.4997600e+01
   1.2944420e+02   9.3405527e+01   4.5438007e+01
   1.2993323e+02   1.1383146e+02   3.4733297e+01
   1.2964444e+02   1.3458339e+02   2.8659529e+01
   1.2961191e+02   1.5754309e+02   2.4563247e+01
   1.3093928e+02   1.7847994e+02   2.6321278e+01
   2.1546997e+02   1.7267574e+02   1.3195043e+02
   2.1578216e+02   1.5387478e+02   1.3234254e+02
   2.1441221e+02   1.3473524e+02   1.3262318e+02
   2.1211214e+02   1.1479695e+02   1.3189240e+02
   2.0663900e+02   9.5894052e+01   1.3206459e+02
   1.9569895e+02   8.0526335e+01   1.3106654e+02
   1.8186019e+02   6.6971478e+01   1.3281430e+02
   1.6602344e+02   5.7251966e+01   1.3247369e+02
   1.4782400e+02   4.9698176e+01   1.3098800e+02
   1.1168107e+02   4.7738488e+01   1.3086035e+02
   9.4760652e+01   5.4965925e+01   1.3125499e+02
   7.7351832e+01   6.5580187e+01   1.3041289e+02
   6.3267093e+01   7.9755545e+01   1.3072148e+02
   5.2753698e+01   9.5273698e+01   1.3008560e+02
   4.8171372e+01   1.1330889e+02   1.2959823e+02
   4.4854725e+01   1.3233153e+02   1.2913416e+02
   4.3611541e+01   1.4914379e+02   1.2877963e+02
   4.2006878e+01   1.6919126e+02   1.2835286e+02
   1.4071283e+02   1.8714022e+02   2.2666282e+02
   1.5643305e+02   1.8648003e+02   2.2534604e+02
   1.7001658e+02   1.8624548e+02   2.2251099e+02
   1.8173485e+02   1.8576506e+02   2.1079060e+02
   1.9102127e+02   1.8733970e+02   1.9815770e+02
   2.0245740e+02   1.8766684e+02   1.8894306e+02
   2.1138251e+02   1.8747403e+02   1.7579642e+02
   2.1449238e+02   1.8917987e+02   1.6140861e+02
   2.1420430e+02   1.8968909e+02   1.4797814e+02
   2.1445091e+02   1.9364108e+02   1.1612327e+02
   2.1933201e+02   1.9495284e+02   1.0393761e+02
   2.1672171e+02   1.9513279e+02   8.8956527e+01
   2.0863869e+02   1.9604842e+02   7.7243633e+01
   1.9929844e+02   1.9783524e+02   6.3177023e+01
   1.8823970e+02   1.9940670e+02   5.1032584e+01
   1.7737475e+02   2.0073261e+02   4.0908109e+01
   1.6131364e+02   2.0171738e+02   3.4025596e+01
   1.4574428e+02   2.0236343e+02   2.9911533e+01
   1.1463592e+02   1.8704944e+02   2.2395805e+02
   1.0028909e+02   1.8612857e+02   2.2350245e+02
   8.4724200e+01   1.8547260e+02   2.2094809e+02
   7.3041510e+01   1.8598322e+02   2.0841434e+02
   6.6259766e+01   1.8677167e+02   1.9717179e+02
   5.5037048e+01   1.8674942e+02   1.8503351e+02
   4.6510345e+01   1.8712740e+02   1.7334758e+02
   4.2322876e+01   1.9028728e+02   1.5672126e+02
   4.1424064e+01   1.9092141e+02   1.4230410e+02
   4.2653434e+01   1.9378777e+02   1.1515658e+02
   3.8883500e+01   1.9437416e+02   1.0007009e+02
   4.3508955e+01   1.9548901e+02   8.5811565e+01
   5.3992860e+01   1.9691524e+02   7.3153642e+01
   6.0967877e+01   1.9831011e+02   6.1035433e+01
   7.0614601e+01   1.9961775e+02   4.9427291e+01
   8.3658555e+01   2.0078986e+02   3.8671742e+01
   9.8760678e+01   2.0238287e+02   3.3495706e+01
   1.1382986e+02   2.0286088e+02   2.8332159e+01
   1.4381990e+02   1.6643283e+02   2.3557265e+02
   1.5987738e+02   1.6545972e+02   2.3312635e+02
   1.7502275e+02   1.6613301e+02   2.2633812e+02
   1.8640072e+02   1.6670757e+02   2.1665959e+02
   1.9550169e+02   1.6771747e+02   2.0233933e+02
   2.0338946e+02   1.6808561e+02   1.8942654e+02
   2.0934964e+02   1.6950783e+02   1.7716248e+02
   2.1182990e+02   1.7011694e+02   1.6268331e+02
   2.1335410e+02   1.7254088e+02   1.4660347e+02
   2.1786358e+02   1.7202454e+02   1.1869257e+02
   2.1916317e+02   1.7387500e+02   1.0325026e+02
   2.1243439e+02   1.7426580e+02   9.1314769e+01
   2.0656012e+02   1.7491217e+02   7.7192732e+01
   1.9774128e+02   1.7560918e+02   6.2885682e+01
   1.8961905e+02   1.7589009e+02   5.1972131e+01
   1.7739386e+02   1.7636158e+02   3.9805947e+01
   1.6430339e+02   1.7741933e+02   3.2081677e+01
   1.4852564e+02   1.7830084e+02   2.6955738e+01
   1.1409095e+02   1.6572151e+02   2.3460624e+02
   9.8604575e+01   1.6446189e+02   2.3259742e+02
   8.2718731e+01   1.6366904e+02   2.2642283e+02
   7.1071369e+01   1.6395296e+02   2.1576534e+02
   6.4018841e+01   1.6468144e+02   2.0105661e+02
   5.7036934e+01   1.6575940e+02   1.8887122e+02
   4.8717256e+01   1.6587482e+02   1.7391936e+02
   4.5538024e+01   1.6711295e+02   1.5932877e+02
   4.4639212e+01   1.6774707e+02   1.4491160e+02
   3.8278678e+01   1.6890196e+02   1.1180600e+02
   4.2750055e+01   1.7066975e+02   9.7719380e+01
   4.8590332e+01   1.7234952e+02   8.3330066e+01
   5.4466627e+01   1.7375935e+02   7.1175370e+01
   6.2337702e+01   1.7536920e+02   5.7203727e+01
   7.2751884e+01   1.7661418e+02   4.6053760e+01
   8.4464381e+01   1.7746029e+02   3.8106567e+01
   9.9023689e+01   1.7835639e+02   2.9518146e+01
   1.1336749e+02   1.7861803e+02   2.6205887e+01
   1.4255889e+02   1.4660455e+02   2.3384723e+02
   1.5984011e+02   1.4698991e+02   2.2927533e+02
   1.7266677e+02   1.4756011e+02   2.2352636e+02
   1.8593015e+02   1.4785414e+02   2.1450638e+02
   1.9479220e+02   1.4871776e+02   2.0293428e+02
   2.0237112e+02   1.4899792e+02   1.9077533e+02
   2.0939335e+02   1.5067495e+02   1.7631451e+02
   2.1141971e+02   1.5116775e+02   1.6172236e+02
   2.1302967e+02   1.5199333e+02   1.4663147e+02
   2.1568754e+02   1.5432308e+02   1.1787555e+02
   2.1571476e+02   1.5507528e+02   1.0240579e+02
   2.1065624e+02   1.5550535e+02   9.0011706e+01
   2.0436516e+02   1.5568776e+02   7.5643916e+01
   1.9670923e+02   1.5582279e+02   6.0794740e+01
   1.8801575e+02   1.5705813e+02   4.7540839e+01
   1.7678184e+02   1.5658260e+02   3.7620137e+01
   1.6313042e+02   1.5693990e+02   3.1412510e+01
   1.4509631e+02   1.5709989e+02   2.6625573e+01
   1.1393592e+02   1.4688274e+02   2.3382296e+02
   9.8457187e+01   1.4585362e+02   2.2935676e+02
   8.3416483e+01   1.4431069e+02   2.2064585e+02
   7.1888462e+01   1.4434468e+02   2.1205063e+02
   6.3365515e+01   1.4596309e+02   1.9931485e+02
   5.5347105e+01   1.4556201e+02   1.8481370e+02
   4.9478180e+01   1.4615556e+02   1.7112902e+02
   4.6696764e+01   1.4765986e+02   1.5666085e+02
   4.4591115e+01   1.4895720e+02   1.4319989e+02
   4.1547710e+01   1.4862696e+02   1.1434554e+02
   4.2655551e+01   1.5007396e+02   9.8149234e+01
   4.7501781e+01   1.5143274e+02   8.5935737e+01
   5.4423678e+01   1.5366616e+02   7.1548702e+01
   6.1335269e+01   1.5394556e+02   5.9449206e+01
   7.1815990e+01   1.5537132e+02   4.6795464e+01
   8.2679572e+01   1.5641420e+02   3.7284965e+01
   9.8000469e+01   1.5717079e+02   2.9792187e+01
   1.1322697e+02   1.5794525e+02   2.6602131e+01
   1.6435574e+02   1.3901503e+02   2.2690828e+02
   1.5472083e+02   1.3131941e+02   2.3032305e+02
   1.4362605e+02   1.2572409e+02   2.3221815e+02
   9.4388692e+01   1.3919931e+02   2.2521010e+02
   1.0368993e+02   1.3363087e+02   2.2821945e+02
   1.1625709e+02   1.2688264e+02   2.3227548e+02
   1.8296688e+02   1.4205761e+02   2.1512165e+02
   1.7756912e+02   1.3333490e+02   2.1724777e+02
   1.7332319e+02   1.2522185e+02   2.2017096e+02
   1.6649176e+02   1.1834044e+02   2.2208220e+02
   1.5869874e+02   1.1233958e+02   2.2212813e+02
   1.5073389e+02   1.0721962e+02   2.2295681e+02
   1.3961542e+02   1.0658234e+02   2.2422829e+02
   7.6676230e+01   1.3885315e+02   2.1480624e+02
   8.3193551e+01   1.3091817e+02   2.1728129e+02
   8.6538054e+01   1.2432349e+02   2.1896513e+02
   9.4695630e+01   1.1610144e+02   2.2193320e+02
   1.0236151e+02   1.1190413e+02   2.2331571e+02
   1.1005799e+02   1.0803883e+02   2.2374394e+02
   1.1878249e+02   1.0618755e+02   2.2457597e+02
   1.9260079e+02   1.3786642e+02   2.0420253e+02
   1.8814374e+02   1.2859859e+02   2.0585060e+02
   1.8102724e+02   1.1818816e+02   2.0781759e+02
   1.7348288e+02   1.0761153e+02   2.0927341e+02
   1.6474588e+02   9.9060032e+01   2.1071832e+02
   1.5394215e+02   9.3027773e+01   2.1274350e+02
   1.4232681e+02   8.9950777e+01   2.1322993e+02
   6.7512452e+01   1.3641301e+02   2.0225323e+02
   7.2410704e+01   1.2512530e+02   2.0513574e+02
   7.6972461e+01   1.1481639e+02   2.0656891e+02
   8.4759574e+01   1.0672346e+02   2.0896640e+02
   9.3468922e+01   9.8555630e+01   2.1053525e+02
   1.0634959e+02   9.3192891e+01   2.1256682e+02
   1.1829030e+02   9.1369608e+01   2.1354090e+02
   2.0063360e+02   1.3552366e+02   1.9181366e+02
   1.9589674e+02   1.2452313e+02   1.9328337e+02
   1.8836657e+02   1.0964291e+02   1.9497262e+02
   1.8098655e+02   1.0054147e+02   1.9643942e+02
   1.7001050e+02   9.0082052e+01   1.9717819e+02
   1.5910571e+02   8.1274153e+01   1.9860159e+02
   1.4491847e+02   7.5020914e+01   1.9875445e+02
   5.7623208e+01   1.3263113e+02   1.8720042e+02
   6.2963569e+01   1.1981160e+02   1.8849413e+02
   6.9461776e+01   1.0904254e+02   1.9096279e+02
   7.8951203e+01   9.7489322e+01   1.9364734e+02
   9.0513683e+01   8.7061542e+01   1.9514700e+02
   1.0258535e+02   8.0971178e+01   1.9771206e+02
   1.1533208e+02   7.5964482e+01   1.9832818e+02
   2.0748552e+02   1.3592804e+02   1.7868303e+02
   2.0464028e+02   1.2020385e+02   1.7932510e+02
   1.9710632e+02   1.0692093e+02   1.7990883e+02
   1.8645454e+02   9.3841785e+01   1.8175274e+02
   1.7574565e+02   8.3995583e+01   1.8266272e+02
   1.6252100e+02   7.2301918e+01   1.8341945e+02
   1.4791118e+02   6.6006070e+01   1.8510910e+02
   5.1629601e+01   1.3233604e+02   1.7404353e+02
   5.4763649e+01   1.1645095e+02   1.7596455e+02
   6.3891207e+01   1.0161235e+02   1.7654208e+02
   7.4236502e+01   8.9145646e+01   1.7916918e+02
   8.5934388e+01   7.9807401e+01   1.8178250e+02
   9.8671327e+01   7.0579159e+01   1.8340118e+02
   1.1369213e+02   6.4848552e+01   1.8400305e+02
   2.1206328e+02   1.3533514e+02   1.6436654e+02
   2.0793291e+02   1.1857094e+02   1.6556992e+02
   2.0136480e+02   1.0092344e+02   1.6465578e+02
   1.9102104e+02   8.9528671e+01   1.6760794e+02
   1.7983651e+02   7.6871355e+01   1.6752783e+02
   1.6551718e+02   6.6433369e+01   1.6719824e+02
   1.4997495e+02   5.9763059e+01   1.6840612e+02
   4.6652349e+01   1.3106328e+02   1.5796849e+02
   5.0255293e+01   1.1279312e+02   1.6048164e+02
   5.8983908e+01   9.6638533e+01   1.6107057e+02
   6.8835864e+01   8.4707721e+01   1.6254715e+02
   8.0993315e+01   7.2062655e+01   1.6328105e+02
   9.6962998e+01   6.1674051e+01   1.6502790e+02
   1.1428886e+02   5.6972735e+01   1.6568653e+02
   2.1312704e+02   1.3506836e+02   1.4802868e+02
   2.1118280e+02   1.1716422e+02   1.4927386e+02
   2.0461093e+02   9.8276291e+01   1.4940956e+02
   1.9440207e+02   8.4613567e+01   1.4835352e+02
   1.8209675e+02   7.1679666e+01   1.4916368e+02
   1.6615610e+02   6.1949153e+01   1.4892254e+02
   1.4824333e+02   5.5271880e+01   1.4938094e+02
   4.5816963e+01   1.3281287e+02   1.4353261e+02
   4.9133610e+01   1.1379023e+02   1.4399669e+02
   5.3715937e+01   9.5755030e+01   1.4448406e+02
   6.5615027e+01   8.1577884e+01   1.4514058e+02
   7.7527767e+01   6.9755255e+01   1.4575365e+02
   9.4536502e+01   5.9476654e+01   1.4650585e+02
   1.1168440e+02   5.1528015e+01   1.4732186e+02
   2.1571564e+02   1.3777262e+02   1.1618009e+02
   2.1439321e+02   1.1793874e+02   1.1451349e+02
   2.0879768e+02   9.6983153e+01   1.1363235e+02
   1.9899683e+02   8.0496012e+01   1.1259003e+02
   1.8492794e+02   6.6299657e+01   1.1136434e+02
   1.6763694e+02   5.5384528e+01   1.0997127e+02
   1.4973649e+02   4.8806303e+01   1.1053091e+02
   4.2670667e+01   1.3087468e+02   1.1368680e+02
   4.5991070e+01   1.1309247e+02   1.1310103e+02
   5.1612449e+01   9.5167276e+01   1.1259375e+02
   6.2564244e+01   7.7405256e+01   1.1123224e+02
   7.7189010e+01   6.5050647e+01   1.1091776e+02
   9.2975925e+01   5.3796527e+01   1.1062106e+02
   1.1017870e+02   4.8104724e+01   1.1026727e+02
   2.1457335e+02   1.3647343e+02   9.9737278e+01
   2.1331233e+02   1.1664515e+02   9.8011856e+01
   2.0697487e+02   1.0141622e+02   9.7060203e+01
   1.9781833e+02   8.4143884e+01   9.5026925e+01
   1.8437344e+02   6.9356118e+01   9.3420667e+01
   1.6991872e+02   5.7464116e+01   9.2551449e+01
   1.5195859e+02   5.1010862e+01   9.2079955e+01
   4.5923583e+01   1.3513202e+02   9.5392976e+01
   4.9654673e+01   1.1646941e+02   9.6041396e+01
   5.6473231e+01   9.8472600e+01   9.4987924e+01
   6.4635912e+01   8.0199205e+01   9.3792170e+01
   7.7761493e+01   6.7975563e+01   9.2789205e+01
   9.3195362e+01   5.5977909e+01   9.1536308e+01
   1.1119703e+02   5.0490436e+01   9.0788438e+01
   2.0942563e+02   1.3933891e+02   8.7175535e+01
   2.0662848e+02   1.2183734e+02   8.3319041e+01
   2.0134419e+02   1.0461804e+02   8.1441528e+01
   1.9288652e+02   8.9141726e+01   7.8341797e+01
   1.8167648e+02   7.6863911e+01   7.5665093e+01
   1.6708055e+02   6.5430848e+01   7.3826268e+01
   1.5111259e+02   5.8467317e+01   7.2351810e+01
   5.1428894e+01   1.3670045e+02   8.2530634e+01
   5.4695162e+01   1.1905111e+02   7.9873448e+01
   5.9636615e+01   1.0131229e+02   7.8857935e+01
   6.8543644e+01   8.7126750e+01   7.6335509e+01
   8.1320315e+01   7.5224952e+01   7.4310564e+01
   9.4504518e+01   6.4943290e+01   7.3497396e+01
   1.1277656e+02   5.8740310e+01   7.3136985e+01
   2.0320785e+02   1.4321773e+02   7.2436509e+01
   2.0006641e+02   1.2816630e+02   6.9163232e+01
   1.9436221e+02   1.1307450e+02   6.4492501e+01
   1.8636761e+02   9.9534646e+01   6.2427901e+01
   1.7645965e+02   8.9548072e+01   5.9768997e+01
   1.6352359e+02   7.8504875e+01   5.8062658e+01
   1.4783207e+02   7.4504478e+01   5.5566502e+01
   5.6338376e+01   1.4152732e+02   6.7600831e+01
   6.1150445e+01   1.2665975e+02   6.4059358e+01
   6.7472466e+01   1.1248669e+02   6.2083937e+01
   7.4692797e+01   9.9324590e+01   5.8751733e+01
   8.5112574e+01   9.0252182e+01   5.8340154e+01
   9.7849218e+01   8.1427171e+01   5.6768104e+01
   1.1268371e+02   7.8341880e+01   5.4233984e+01
   1.9577646e+02   1.4375971e+02   5.8883855e+01
   1.9104933e+02   1.3211307e+02   5.5318339e+01
   1.8635921e+02   1.1897624e+02   5.3396078e+01
   1.8008469e+02   1.0930145e+02   5.0743491e+01
   1.7059871e+02   1.0335970e+02   4.8530552e+01
   1.5765817e+02   9.4878571e+01   4.7245283e+01
   1.4480906e+02   9.3533877e+01   4.5306695e+01
   6.2785793e+01   1.4430285e+02   5.6596336e+01
   6.7466998e+01   1.3086989e+02   5.4379097e+01
   7.4774936e+01   1.2026650e+02   5.1270993e+01
   8.0719928e+01   1.0865838e+02   4.9027020e+01
   9.1153408e+01   1.0096486e+02   4.7968368e+01
   1.0352631e+02   9.6716425e+01   4.5264945e+01
   1.1619037e+02   9.2869920e+01   4.4319786e+01
   1.8536209e+02   1.4879742e+02   4.6073433e+01
   1.8034420e+02   1.4142400e+02   4.2965081e+01
   1.7505978e+02   1.3207207e+02   4.0954292e+01
   1.6826860e+02   1.2552560e+02   3.8756311e+01
   1.6082738e+02   1.2061896e+02   3.7629659e+01
   1.5002363e+02   1.1789889e+02   3.6346325e+01
   1.4104394e+02   1.1479631e+02   3.6005593e+01
   7.3348239e+01   1.4895876e+02   4.4432841e+01
   7.8278531e+01   1.4132566e+02   4.2683998e+01
   8.5820619e+01   1.3317724e+02   3.9562887e+01
   9.2016965e+01   1.2665563e+02   3.7732351e+01
   9.8827322e+01   1.2053374e+02   3.6617162e+01
   1.0936749e+02   1.1733633e+02   3.5941205e+01
   1.1919633e+02   1.1732658e+02   3.5238445e+01
   1.6813847e+02   1.4888285e+02   3.3771809e+01
   1.5714126e+02   1.4034933e+02   3.1469404e+01
   1.4394515e+02   1.3454089e+02   2.9061594e+01
   9.3047741e+01   1.4946365e+02   3.3233275e+01
   1.0167473e+02   1.4262097e+02   3.0081944e+01
   1.1544141e+02   1.3604627e+02   2.8088050e+01
